wavelength,transmission
1597.495,0.01246828
1602.495,0.027878919999999998
1607.495,0.04311608000000001
1612.495,0.05790071
1617.495,0.073463716
1622.495,0.09243686000000001
1627.495,0.11495813999999999
1632.495,0.13864105999999998
1637.495,0.16179014000000003
1642.495,0.18358104
1647.495,0.2047304
1652.495,0.22731146
1657.495,0.24997350000000002
1662.495,0.26808740000000003
1667.495,0.28185688
1672.495,0.29626136
1677.495,0.3117129
1682.495,0.3240266
1687.495,0.33312647999999995
1692.495,0.34305820000000004
1697.495,0.35362072
1702.495,0.36033946
1707.495,0.36225338
1712.495,0.36213214
1717.495,0.36349064
1722.495,0.37024566
1727.495,0.38215953999999996
1732.495,0.39490326000000003
1737.495,0.40600887999999996
1742.495,0.4150949
1747.495,0.42294235999999996
1752.495,0.43130409999999997
1757.495,0.43966640000000007
1762.495,0.4453217
1767.495,0.4482528
1772.495,0.45114948
1777.495,0.45489048
1782.495,0.45846159999999997
1787.495,0.46165534
1792.495,0.46512865999999997
1797.495,0.46895622
1802.495,0.47260734
1807.495,0.47587216
1812.495,0.47889332
1817.495,0.48192494
1822.495,0.48530093999999996
1827.495,0.48897556000000003
1832.495,0.492524
1837.495,0.49560074
1842.495,0.49799869999999996
1847.495,0.5004875999999999
1852.495,0.5047168
1857.495,0.51023792
1862.495,0.5145729
1867.495,0.51768014
1872.495,0.52192462
1877.495,0.52695182
1882.495,0.5297234000000001
1887.495,0.530411
1892.495,0.53235356
1897.495,0.5351878000000001
1902.495,0.53487748
1907.495,0.53122468
1912.495,0.5279203
1917.495,0.52613368
1922.495,0.5243779
1927.495,0.52194458
1932.495,0.5190233200000001
1937.495,0.51588738
1942.495,0.5128537
1947.495,0.5102241200000001
1952.495,0.5082624
1957.495,0.50673844
1962.495,0.50495906
1967.495,0.5029
1972.495,0.5011954
1977.495,0.49976455999999997
1982.495,0.49782215999999996
1987.495,0.49546326
1992.495,0.49363409999999996
1997.495,0.49190940000000005
2002.495,0.48852460000000003
2007.495,0.4833186
2012.495,0.47775886
2017.495,0.47255318
2022.495,0.467572
2027.495,0.46255016
2032.495,0.45714184
2037.495,0.45145
2042.495,0.44600784000000004
2047.495,0.44086211999999997
2052.495,0.43556503999999996
2057.495,0.42993034
2062.495,0.42405674
2067.495,0.4180894
2072.495,0.41219986
2077.495,0.40640106000000004
2082.496,0.40054546
2087.495,0.39448124
2092.495,0.38808716
2097.496,0.3819003
2102.496,0.37705902
2107.495,0.37344459999999996
2112.495,0.3696973
2117.496,0.36543114000000004
2122.496,0.36126459999999994
2127.496,0.3572697
2132.495,0.35295116
2137.495,0.34833210000000003
2142.496,0.34395815999999996
2147.496,0.3398788
2152.496,0.33564168
2157.495,0.33118702
2162.495,0.32685390000000003
2167.495,0.3226256
2172.496,0.31813276
2177.496,0.3134575
2182.496,0.30912986
2187.495,0.30524276
2192.495,0.30142276
2197.495,0.29705302000000006
2202.496,0.29133454
2207.495,0.2844089
2212.495,0.27734188
2217.495,0.27063412
2222.496,0.26417862
2227.495,0.2577818
2232.495,0.25121506
2237.495,0.24484128
2242.496,0.23957526
2247.496,0.23540257999999997
2252.495,0.23138042000000003
2257.496,0.22712917999999999
2262.496,0.22286832
2267.495,0.21872656
2272.495,0.21471192000000003
2277.496,0.21076386
2282.495,0.20676416
2287.495,0.20273882000000001
2292.496,0.19885404
2297.496,0.19514120000000001
2302.495,0.19149364000000002
2307.495,0.18787864
2312.496,0.18433982000000002
2317.496,0.18085207
2322.496,0.1773254
2327.495,0.17384128000000001
2332.496,0.17064660999999998
2337.496,0.16776504
2342.496,0.16499555999999999
2347.496,0.1622653
2352.496,0.15963637400000003
2357.495,0.15709488
2362.496,0.1545495
2367.496,0.15199464000000001
2372.496,0.149510212
2377.496,0.147087794
2382.496,0.14463289199999999
2387.496,0.14217668
2392.496,0.13987256
2397.496,0.13770771
2402.495,0.13550373999999998
2407.496,0.1332216
2412.496,0.13096612
2417.496,0.12877272
2422.496,0.12660366
2427.496,0.1244744
2432.496,0.12244991399999999
2437.496,0.12042489999999999
2442.496,0.11813323
2447.496,0.11557376
2452.496,0.11301052
2457.496,0.110561332
2462.496,0.10818603999999998
2467.496,0.105851546
2472.496,0.10353933400000001
2477.496,0.10125738999999999
2482.496,0.09904007
2487.496,0.09694075999999999
2492.496,0.09502565400000001
2497.496,0.09324322800000001
2502.496,0.091428566
2507.496,0.089535
2512.496,0.08763817999999998
2517.496,0.08579926400000001
2522.495,0.084055892
2527.496,0.08236574
2532.496,0.08061498599999999
2537.496,0.078867636
2542.496,0.07735878
2547.496,0.076096768
2552.496,0.074862222
2557.496,0.07358749
2562.496,0.07236321400000001
2567.496,0.071207734
2572.496,0.07006267999999999
2577.496,0.06892221000000001
2582.496,0.067832908
2587.496,0.066762852
2592.496,0.065609966
2597.496,0.06451507599999999
2602.496,0.06384881
2607.496,0.06360446400000001
2612.496,0.06339813799999999
2617.496,0.063078752
2622.4959999999996,0.06274211
2627.4959999999996,0.062429872
2632.4959999999996,0.062119480000000005
2637.4959999999996,0.06180274400000001
2642.4959999999996,0.0614883
2647.4959999999996,0.061174364
2652.4959999999996,0.060848655999999994
2657.4959999999996,0.06051167
2662.4959999999996,0.060176534000000004
2667.4959999999996,0.059843153999999996
2672.4959999999996,0.059498176
2677.4959999999996,0.059141412000000004
2682.4959999999996,0.05878583
2687.495,0.058432374
2692.4959999999996,0.058069699999999995
2697.4959999999996,0.057694419999999996
2702.4959999999996,0.05731156
2707.4959999999996,0.056926345999999996
2712.4959999999996,0.05654341599999999
2717.4959999999996,0.056160192000000005
2722.4959999999996,0.05576711599999999
2727.4959999999996,0.05536206799999999
2732.4959999999996,0.05495060400000001
2737.4959999999996,0.054536360000000006
2742.4959999999996,0.054120407999999995
2747.4959999999996,0.05369779599999999
2752.4959999999996,0.053258142
2757.4959999999996,0.052802892000000004
2762.4959999999996,0.052345232
2767.4959999999996,0.05189173999999999
2772.4959999999996,0.05144164599999999
2777.4959999999996,0.050989332000000005
2782.4959999999996,0.050524888
2787.4959999999996,0.05004204799999999
2792.4959999999996,0.049538946
2797.4959999999996,0.049023904
2802.4959999999996,0.048514572
2807.4959999999996,0.048013379999999994
2812.4959999999996,0.04750738
2817.4959999999996,0.046985764000000006
2822.4959999999996,0.046441050000000005
2827.4959999999996,0.04587710400000001
2832.4959999999996,0.045308789999999995
2837.4959999999996,0.044746190000000005
2842.4959999999996,0.044193754
2847.4959999999996,0.043644004
2852.4959999999996,0.043078528
2857.4959999999996,0.04249495599999999
2862.4959999999996,0.04190734
2867.4959999999996,0.041325144
2872.4959999999996,0.040752134
2877.4959999999996,0.040182242
2882.4959999999996,0.039600512000000004
2887.4959999999996,0.0390069
2892.4959999999996,0.038416373999999996
2897.4959999999996,0.037835062
2902.4959999999996,0.03725926399999999
2907.4959999999996,0.036679466
2912.4959999999996,0.036081724
2917.4959999999996,0.035475864
2922.4959999999996,0.034894263999999994
2927.4959999999996,0.034336705999999995
2932.4959999999996,0.033770352
2937.4959999999996,0.033186424
2942.4959999999996,0.03260137
2947.4959999999996,0.032028406
2952.4959999999996,0.031475644
2957.4959999999996,0.030936162
2962.4959999999996,0.030388693999999997
2967.4959999999996,0.029825754
2972.4959999999996,0.029254548
2977.4959999999996,0.028689824000000003
2982.4959999999996,0.02815223
2987.4959999999996,0.027642092000000004
2992.4959999999996,0.027139563999999998
2997.4959999999996,0.026636197999999996
3002.4959999999996,0.026135914000000003
3007.4959999999996,0.025642523999999996
3012.4959999999996,0.025159077999999998
3017.4959999999996,0.024686048000000002
3022.4959999999996,0.024221542
3027.4959999999996,0.023767232000000003
3032.4959999999996,0.02332805
3037.4959999999996,0.022896758
3042.4959999999996,0.022454883999999998
3047.4959999999996,0.022007412
3052.4959999999996,0.021582246
3057.4959999999996,0.021181248
3062.4959999999996,0.020780086
3067.4959999999996,0.020373822
3072.4959999999996,0.019977508799999998
3077.4959999999996,0.01959424
3082.4959999999996,0.019214704
3087.4959999999996,0.018838743999999998
3092.4959999999996,0.0184755528
3097.4959999999996,0.018122510999999997
3102.4959999999996,0.017765576
3107.4959999999996,0.017407906
3112.4959999999996,0.017069392
3117.4959999999996,0.016747381999999998
3122.4959999999996,0.0164170492
3127.4959999999996,0.016078443999999997
3132.495,0.01575639
3137.4959999999996,0.015453468000000001
3142.4959999999996,0.01514959
3147.4959999999996,0.014841906
3152.4959999999996,0.014545206
3157.4959999999996,0.014260931
3162.4959999999996,0.013976808
3167.4959999999996,0.0136899292
3172.4959999999996,0.0134071732
3177.495,0.013131354
3182.4959999999996,0.012860748799999999
3187.4959999999996,0.0125944972
3192.4959999999996,0.0123327446
3197.4959999999996,0.01207622
3202.4959999999996,0.011826072
3207.4959999999996,0.011580248
3212.4959999999996,0.0113337088
3217.4959999999996,0.011086512
3222.4959999999996,0.010843803999999999
3227.4959999999996,0.010607392799999999
3232.4959999999996,0.010375691999999999
3237.4959999999996,0.010148686
3242.4959999999996,0.00992796
3247.4959999999996,0.009711716799999999
3252.4959999999996,0.009494909000000001
3257.4959999999996,0.009277358
3262.4959999999996,0.009063791
3267.4959999999996,0.008856732
3272.495,0.0086561876
3277.4959999999996,0.008459610000000001
3282.4959999999996,0.008262301
3287.4959999999996,0.008064429199999999
3292.4959999999996,0.007871004000000001
3297.4959999999996,0.007683872
3302.4959999999996,0.0075015740000000004
3307.4959999999996,0.007323930000000001
3312.4959999999996,0.0071520888
3317.4959999999996,0.006984923400000001
3322.495,0.0068189591999999995
3327.4959999999996,0.006651553
3332.495,0.0064812064
3337.4959999999996,0.006312281999999999
3342.4959999999996,0.00615453
3347.4959999999996,0.006007939
3352.4959999999996,0.005862732000000001
3357.4959999999996,0.005714602
3362.4959999999996,0.005565161999999999
3367.4959999999996,0.0054168772
3372.4959999999996,0.0052727592
3377.4959999999996,0.005134635999999999
3382.4959999999996,0.0050030612
3387.4959999999996,0.0048755732
3392.4959999999996,0.0047470198
3397.4959999999996,0.004617998
3402.4959999999996,0.0044947088
3407.4959999999996,0.0043772146
3412.4959999999996,0.0042594344000000004
3417.495,0.0041404972
3422.4959999999996,0.0040250089999999995
3427.4959999999996,0.0039163228
3432.4959999999996,0.0038160214
3437.4959999999996,0.0037189382
3442.4959999999996,0.003613838
3447.4959999999996,0.0035032328
3452.4959999999996,0.0034030632
3457.4959999999996,0.0033158404
3462.4959999999996,0.0032303274
3467.495,0.0031413649999999997
3472.4959999999996,0.0030505199999999997
3477.4959999999996,0.0029611643999999998
3482.4959999999996,0.0028779164
3487.4959999999996,0.0027998766000000004
3492.4959999999996,0.0027208546
3497.4959999999996,0.0026410773999999996
3502.4959999999996,0.0025671336
3507.4959999999996,0.00249901608
3512.4959999999996,0.002430106
3517.4959999999996,0.00236023008
3522.495,0.0022956878
3527.4959999999996,0.0022372026
3532.4959999999996,0.0021797421999999998
3537.4959999999996,0.0021205869999999997
3542.4959999999996,0.0020597034
3547.4959999999996,0.0019998492000000002
3552.4959999999996,0.001946192
3557.4959999999996,0.0018978152
3562.495,0.0018479520000000001
3567.495,0.0017975000999999999
3572.4959999999996,0.0017548205
3577.4959999999996,0.0017172066800000003
3582.4959999999996,0.0016712585999999999
3587.4959999999996,0.0016195010000000002
3592.4959999999996,0.0015800618
3597.4959999999996,0.00155293972
3602.4959999999996,0.0015200077
3607.495,0.0014787386
3612.495,0.0014425447999999999
3617.4959999999996,0.0014141192
3622.4959999999996,0.0013850734
3627.4959999999996,0.0013545526
3632.4959999999996,0.00132945
3637.4959999999996,0.00131048948
3642.4959999999996,0.0012920463
3647.4959999999996,0.0012720774
3652.4959999999996,0.0012523249999999999
3657.495,0.00123284168
3662.4959999999996,0.0012119724599999999
3667.495,0.0011915568
3672.4959999999996,0.00117677264
3677.4959999999996,0.00116761074
3682.4959999999996,0.0011588764
3687.4959999999996,0.0011487686599999998
3692.4959999999996,0.00113902166
3697.4959999999996,0.0011294542999999999
3702.4959999999996,0.00111801632
3707.495,0.0011072319
3712.495,0.0011038808
3717.4959999999996,0.00110543668
3722.4959999999996,0.0011003918
3727.4959999999996,0.00108892992
3732.4959999999996,0.00108288064
3737.4959999999996,0.0010840348
3742.4959999999996,0.00108400508
3747.4959999999996,0.00108283908
3752.495,0.0010890062800000002
3757.495,0.00110052772
3762.495,0.0011051586
3767.495,0.00110337772
3772.495,0.00110826776
3777.495,0.00111989268
3782.4959999999996,0.00112528152
3787.4959999999996,0.0011237001400000001
3792.4959999999996,0.0011268345199999998
3797.4959999999996,0.0011375572
3802.495,0.0011495202
3807.495,0.00115935832
3812.495,0.00116722494
3817.4959999999996,0.0011763096000000002
3822.4959999999996,0.00119234808
3827.4959999999996,0.001213343
3832.4959999999996,0.00122975394
3837.4959999999996,0.00123898744
3842.495,0.0012457370800000001
3847.495,0.00125497848
3852.495,0.0012713450000000001
3857.495,0.001292314
3862.495,0.0013085301999999999
3867.495,0.0013177120000000004
3872.4959999999996,0.0013249143999999999
3877.4959999999996,0.0013343894
3882.4959999999996,0.0013491402
3887.4959999999996,0.0013692303
3892.4959999999996,0.0013917656
3897.495,0.0014122432
3902.495,0.00142505
3907.495,0.0014333592
3912.495,0.0014486429
3917.495,0.0014701114000000002
3922.495,0.0014849093999999999
3927.4959999999996,0.00149302408
3932.4959999999996,0.00150728852
3937.4959999999996,0.0015285434
3942.495,0.0015454273
3947.495,0.00155459092
3952.495,0.0015612198
3957.495,0.00157048448
3962.495,0.0015868608
3967.495,0.0016078107
3972.4959999999996,0.0016241082
3977.4959999999996,0.00163334132
3982.4959999999996,0.0016402067200000001
3987.495,0.0016494956
3992.495,0.0016655132
3997.495,0.001686295
4002.495,0.0017037919199999999
4007.495,0.0017136728000000001
4012.495,0.0017157916000000001
4017.4959999999996,0.0017146464
4022.4959999999996,0.0017188701
4027.4959999999996,0.0017295928
4032.4959999999996,0.0017404674
4037.4959999999996,0.0017498704
4042.495,0.001761
4047.495,0.0017718254
4052.495,0.0017752821999999998
4057.495,0.0017737276800000002
4062.4959999999996,0.0017786596
4067.4959999999996,0.0017900748
4072.4959999999996,0.0017964704
4077.4959999999996,0.0017955014
4082.495,0.001794259
4087.495,0.0017947308
4092.495,0.00179361388
4097.495,0.0017926950799999999
4102.495,0.0017987139999999999
4107.495,0.00180992812
4112.495,0.0018162419
4117.495,0.0018154412
4122.495,0.0018134392800000002
4127.496,0.0018134392800000002
4132.496,0.0018154412
4137.495,0.0018162419
4142.495,0.0018099277999999999
4147.495,0.0017987133999999999
4152.495,0.0017926964
4157.496,0.0017936162
4162.496,0.0017947260000000002
4167.496,0.0017942498000000002
4172.496,0.0017955202000000002
4177.495,0.001796504
4182.495,0.0017900056
4187.495,0.001778534
4192.495,0.0017739865199999998
4197.495,0.0017757511199999998
4202.496,0.0017708594
4207.496,0.0017592501999999998
4212.496,0.0017537846000000002
4217.496,0.0017553196
4222.496,0.001752494
4227.496,0.00174194068
4232.495,0.0017288216000000002
4237.495,0.0017183504
4242.495,0.0017151112
4247.495,0.0017163983
4252.495,0.0017125854
4257.495,0.001701885
4262.496,0.0016904875999999998
4267.496,0.0016808525999999998
4272.495,0.0016714052800000001
4277.495,0.0016614846
4282.495,0.0016515138
4287.495,0.00164167
4292.495,0.0016318397199999999
4297.495,0.0016219753
4302.495,0.0016121074
4307.495,0.0016022486
4312.496,0.00159239068
4317.495,0.0015825304
4322.495,0.0015726696
4327.495,0.00156281
4332.495,0.0015529500000000002
4337.495,0.00154309
4342.495,0.0015332300000000002
4347.495,0.00152337
4352.495,0.0015135099999999998
4357.495,0.0015036500999999999
4362.495,0.0014937898
4367.495,0.0014839293
4372.495,0.0014740702
4377.495,0.0014642105999999998
4382.495,0.0014543486
4387.495,0.0014444872
4392.495,0.00143463552
4397.495,0.0014247799
4402.496,0.0014148895999999999
4407.495,0.0014050132000000002
4412.495,0.001395266
4417.495,0.0013854675
4422.495,0.00137518748
4427.495,0.001365097
4432.495,0.0013568069999999998
4437.495,0.0013478051199999998
4442.495,0.00133177668
4447.495,0.0013107033000000002
4452.495,0.0012946748
4457.495,0.001285673
4462.496,0.001277383
4467.495,0.0012672936
4472.495,0.00125701248
4477.495,0.00124721416
4482.495,0.00123746686
4487.495,0.0012275904
4492.495,0.0012177001
4497.495,0.00120784446
4502.495,0.0011979927199999999
4507.495,0.00118813164
4512.495,0.0011782690800000001
4517.495,0.00116840974
4522.495,0.0011585502
4527.495,0.0011486902800000001
4532.495,0.0011388296
4537.495,0.00112896926
4542.495,0.00111911148
4547.495,0.00110925264
4552.495,0.00109938436
4557.495,0.0010895196
4562.495,0.0010796903
4567.495,0.0010698468
4572.495,0.00105987408
4577.495,0.0010499524
4582.495,0.0010405134
4587.495,0.00103088334
4592.495,0.0010194525199999998
4597.495,0.0010087342000000001
4602.495,0.0010050448
4607.495,0.0010063994
4612.495,0.00100269996
4617.495,0.0009919773
4622.495,0.00098057724
4627.495,0.00097096376
4632.495,0.0009614113
4637.495,0.00095142774
4642.495,0.0009418778800000001
4647.495,0.0009322654400000001
4652.495,0.0009208572599999999
4657.495,0.0009101307999999999
4662.495,0.0009064606
4667.495,0.00090783134
4672.495,0.00090403148
4677.495,0.00089325264
4682.495,0.0008822346000000001
4687.495,0.0008728300800000001
4692.495,0.0008618504000000001
4697.495,0.0008510869
4702.495,0.0008471720000000001
4707.495,0.0008484815
4712.495,0.0008452332
4717.495,0.0008347360800000001
4722.495,0.000821757
4727.495,0.0008112862799999999
4732.495,0.0008079071399999999
4737.495,0.0008091382
4742.495,0.0008057458
4747.495,0.0007952693200000001
4752.495,0.0007823295200000001
4757.495,0.0007718530999999999
4762.495,0.0007684638000000001
4767.495,0.0007696964600000001
4772.495,0.0007663064
4777.495,0.00075582966
4782.495,0.0007428912799999999
4787.495,0.00073241666
4792.495,0.0007290164400000001
4797.495,0.0007302430999999999
4802.495,0.00072689384
4807.495,0.00071644016
4812.495,0.0007033476
4817.495,0.0006927888
4822.495,0.0006899634000000001
4827.495,0.0006915039999999999
4832.495,0.0006860100400000001
4837.495,0.00067438386
4842.495,0.0006696050600000001
4847.495,0.0006714315999999999
4852.495,0.0006664612
4857.495,0.0006547583999999999
4862.495,0.0006498392
4867.495,0.00065168634
4872.495,0.0006467534599999999
4877.495,0.0006350451
4882.495,0.0006301158599999999
4887.495,0.0006319645
4892.495,0.00062703446
4897.495,0.0006153258000000001
4902.495,0.0006103951200000001
4907.495,0.0006122433
4912.495,0.0006073164
4917.495,0.00059560924
4922.495,0.00059066824
4927.495,0.00059251104
4932.495,0.0005876219
4937.495,0.00057593532
4942.495,0.0005708519799999999
4947.495,0.00057261676
4952.495,0.0005682608
4957.495,0.0005568656599999999
4962.495,0.00054979354
4967.495,0.0005504718
4972.495,0.00055384442
4977.495,0.0005545152
4982.495,0.00054748062
4987.495,0.00053610806
4992.495,0.0005316017599999999
4997.495,0.0005332836599999999
5002.495,0.00052876368
