wavelength,transmission
1597.495,0.034040032
1602.495,0.073676806
1607.495,0.1126211
1612.495,0.1496665
1617.495,0.18757920000000003
1622.495,0.23283064000000003
1627.495,0.28578706
1632.495,0.34061790000000003
1637.495,0.39309115999999994
1642.495,0.44102398
1647.495,0.4862167
1652.495,0.53400872
1657.495,0.581423
1662.495,0.61749566
1667.495,0.64263054
1672.495,0.6684968000000001
1677.495,0.6964565999999999
1682.495,0.71745666
1687.495,0.73123208
1692.495,0.74636772
1697.495,0.76256592
1702.495,0.77058708
1707.495,0.7687320799999999
1712.495,0.7632653
1717.495,0.7612815999999999
1722.495,0.7700219
1727.495,0.7889631999999999
1732.495,0.80994888
1737.495,0.8279784000000001
1742.495,0.8416565
1747.495,0.8523906
1752.495,0.8640376
1757.495,0.87596946
1762.495,0.8831684799999999
1767.495,0.8853226399999999
1772.495,0.8869038
1777.495,0.8897888
1782.495,0.89307304
1787.495,0.89630234
1792.495,0.89958786
1797.495,0.9028694
1802.495,0.90590232
1807.495,0.9086816
1812.495,0.9114437200000001
1817.495,0.91427032
1822.495,0.917081
1827.495,0.9198869999999999
1832.495,0.9227887
1837.495,0.9256614000000001
1842.495,0.9281872
1847.495,0.9308551
1852.495,0.9349144799999999
1857.495,0.9403595
1862.495,0.9459307
1867.495,0.9511654
1872.495,0.9564372
1877.495,0.96178268
1882.495,0.9668928000000001
1887.495,0.972086
1892.495,0.9782291999999999
1897.495,0.98400932
1902.495,0.98605354
1907.495,0.9843521199999999
1912.495,0.98225814
1917.495,0.9810708000000001
1922.495,0.9799135600000001
1927.495,0.9784599399999999
1932.495,0.97701324
1937.495,0.9755344000000001
1942.495,0.9736502800000001
1947.495,0.9718306800000001
1952.495,0.9713478000000001
1957.495,0.97220466
1962.495,0.9731348400000001
1967.495,0.97366554
1972.495,0.9741601999999999
1977.495,0.97468194
1982.495,0.97497788
1987.495,0.9752798
1992.495,0.9762458
1997.495,0.976898
2002.495,0.9747123000000001
2007.495,0.96969094
2012.495,0.96436188
2017.495,0.9597193199999999
2022.495,0.9551299200000001
2027.495,0.95033012
2032.495,0.9454924
2037.495,0.94069068
2042.495,0.935882
2047.495,0.9310481999999999
2052.495,0.92620026
2057.495,0.92135032
2062.495,0.91650924
2067.495,0.9116592400000001
2072.495,0.906758
2077.495,0.9018776
2082.496,0.8971864
2087.495,0.8924262000000001
2092.495,0.8869762
2097.496,0.88181016
2102.496,0.87940354
2107.495,0.8797544
2112.495,0.8803834
2117.496,0.88031806
2122.496,0.8801841
2127.496,0.8802448000000002
2132.495,0.88033516
2137.495,0.8803866600000001
2142.496,0.8804444000000001
2147.496,0.880531
2152.496,0.8806411999999999
2157.495,0.8807641600000001
2162.495,0.88088752
2167.495,0.8810422
2172.496,0.88129592
2177.496,0.8815464
2182.496,0.8815478
2187.495,0.8816894599999999
2192.495,0.88289924
2197.495,0.8837333
2202.496,0.8805116
2207.495,0.87321754
2212.495,0.8655034599999999
2217.495,0.8589184
2222.496,0.85274888
2227.495,0.8462641200000001
2232.495,0.83889808
2237.495,0.8320309399999999
2242.496,0.8288417
2247.496,0.82929908
2252.495,0.8301688
2257.496,0.8301809
2262.496,0.8301480800000001
2267.495,0.83040824
2272.495,0.8307396
2277.496,0.83105384
2282.495,0.83141808
2287.495,0.8318406
2292.496,0.83226906
2297.496,0.8327509999999999
2302.495,0.8334305999999999
2307.495,0.8342981999999999
2312.496,0.83519226
2317.496,0.8360984
2322.496,0.8371438600000001
2327.495,0.8381942800000001
2332.496,0.83888588
2337.496,0.83976554
2342.496,0.8422388000000001
2347.496,0.8463065999999999
2352.496,0.85056466
2357.495,0.8544608000000001
2362.496,0.8583465600000001
2367.496,0.8623696
2372.496,0.8664356999999999
2377.496,0.8705025999999999
2382.496,0.8745892
2387.496,0.87871368
2392.496,0.8828881
2397.496,0.88707794
2402.495,0.8912056800000001
2407.496,0.8952899200000001
2412.496,0.89943946
2417.496,0.9036081999999999
2422.496,0.90761048
2427.496,0.91170174
2432.496,0.9165135200000001
2437.496,0.9210656
2442.496,0.9228576
2447.496,0.92188568
2452.496,0.9206424
2457.496,0.92010666
2462.496,0.9196502
2467.496,0.9190087199999999
2472.496,0.9183465600000001
2477.496,0.91773674
2482.496,0.9171418800000001
2487.496,0.91652786
2492.496,0.91587326
2497.496,0.91523292
2502.496,0.9147326600000001
2507.496,0.91435586
2512.496,0.9139478000000001
2517.496,0.9135125
2522.495,0.9132035999999999
2527.496,0.9128380600000001
2532.496,0.9119406800000001
2537.496,0.9112342800000001
2542.496,0.91257148
2547.496,0.9159540600000001
2552.496,0.9195334
2557.496,0.922582
2562.496,0.92556304
2567.496,0.9286706600000001
2572.496,0.93178054
2577.496,0.93483688
2582.496,0.93786576
2587.496,0.9408889
2592.496,0.9439188000000001
2597.496,0.94691536
2602.496,0.949791
2607.496,0.9525532
2612.496,0.95530166
2617.496,0.9580424399999999
2622.4959999999996,0.96069046
2627.4959999999996,0.9633378
2632.4959999999996,0.9662301999999999
2637.4959999999996,0.96899506
2642.4959999999996,0.9706761999999999
2647.4959999999996,0.97127312
2652.4959999999996,0.97174026
2657.4959999999996,0.97245316
2662.4959999999996,0.9731725400000001
2667.4959999999996,0.97379746
2672.4959999999996,0.97439026
2677.4959999999996,0.97498146
2682.4959999999996,0.9755621999999999
2687.495,0.97611306
2692.4959999999996,0.9766088
2697.4959999999996,0.9770987
2702.4959999999996,0.97770164
2707.4959999999996,0.9784229999999999
2712.4959999999996,0.9791539
2717.4959999999996,0.9798248
2722.4959999999996,0.9804156
2727.4959999999996,0.9810198000000001
2732.4959999999996,0.98182114
2737.4959999999996,0.98251648
2742.4959999999996,0.98234504
2747.4959999999996,0.9813079
2752.4959999999996,0.9801678000000001
2757.4959999999996,0.9792246
2762.4959999999996,0.9782873999999999
2767.4959999999996,0.9772757
2772.4959999999996,0.9762394799999999
2777.4959999999996,0.975203
2782.4959999999996,0.9741584799999999
2787.4959999999996,0.9730916
2792.4959999999996,0.9719846
2797.4959999999996,0.9708731999999999
2802.4959999999996,0.96984154
2807.4959999999996,0.9688886
2812.4959999999996,0.9679287
2817.4959999999996,0.9669313000000002
2822.4959999999996,0.965924
2827.4959999999996,0.9649063199999999
2832.4959999999996,0.9638499399999999
2837.4959999999996,0.9627886
2842.4959999999996,0.9618152600000001
2847.4959999999996,0.9609308599999999
2852.4959999999996,0.9600442
2857.4959999999996,0.959119
2862.4959999999996,0.9581792
2867.4959999999996,0.95723412
2872.4959999999996,0.95627746
2877.4959999999996,0.9553076999999999
2882.4959999999996,0.9543278000000001
2887.4959999999996,0.9533366
2892.4959999999996,0.9523291
2897.4959999999996,0.951313
2902.4959999999996,0.9503081600000001
2907.4959999999996,0.94931374
2912.4959999999996,0.9483086000000001
2917.4959999999996,0.9472889999999999
2922.4959999999996,0.94626914
2927.4959999999996,0.9452374
2932.4959999999996,0.9441594000000001
2937.4959999999996,0.9430864800000001
2942.4959999999996,0.9421508
2947.4959999999996,0.9413526
2952.4959999999996,0.94056054
2957.4959999999996,0.9397230000000001
2962.4959999999996,0.9388736
2967.4959999999996,0.93802566
2972.4959999999996,0.9371692
2977.4959999999996,0.9363032
2982.4959999999996,0.93543548
2987.4959999999996,0.9345584800000001
2992.4959999999996,0.9336504000000001
2997.4959999999996,0.93274468
3002.4959999999996,0.9319277199999999
3007.4959999999996,0.9312231400000001
3012.4959999999996,0.9305858600000001
3017.4959999999996,0.9298881999999999
3022.4959999999996,0.928947
3027.4959999999996,0.92809952
3032.4959999999996,0.92812026
3037.4959999999996,0.9277871999999999
3042.4959999999996,0.9239981999999999
3047.4959999999996,0.91675476
3052.4959999999996,0.90916252
3057.4959999999996,0.902441
3062.4959999999996,0.89580848
3067.4959999999996,0.8889394
3072.4959999999996,0.8820458000000001
3077.4959999999996,0.8752117199999999
3082.4959999999996,0.8683724
3087.4959999999996,0.8615179399999999
3092.4959999999996,0.8546982
3097.4959999999996,0.8478670600000001
3102.4959999999996,0.84088494
3107.4959999999996,0.83371552
3112.4959999999996,0.82643548
3117.4959999999996,0.8192446
3122.4959999999996,0.812426
3127.4959999999996,0.8054573
3132.495,0.7971394
3137.4959999999996,0.78936608
3142.4959999999996,0.7869421400000001
3147.4959999999996,0.7898625200000001
3152.4959999999996,0.7933130600000001
3157.4959999999996,0.795403
3162.4959999999996,0.7973442
3167.4959999999996,0.7996420999999999
3172.4959999999996,0.8019703
3177.495,0.80419686
3182.4959999999996,0.8064184600000001
3187.4959999999996,0.8086565400000001
3192.4959999999996,0.810853
3197.4959999999996,0.8130528000000001
3202.4959999999996,0.8154029
3207.4959999999996,0.8179179999999999
3212.4959999999996,0.8204775999999999
3217.4959999999996,0.82298028
3222.4959999999996,0.82536
3227.4959999999996,0.8277939599999999
3232.4959999999996,0.83065636
3237.4959999999996,0.83334312
3242.4959999999996,0.834329
3247.4959999999996,0.8336159599999999
3252.4959999999996,0.83273246
3257.4959999999996,0.8322790600000001
3262.4959999999996,0.83187134
3267.4959999999996,0.8313485
3272.495,0.8308138
3277.4959999999996,0.8303102
3282.4959999999996,0.8298102
3287.4959999999996,0.8293025199999999
3292.4959999999996,0.8287961999999999
3297.4959999999996,0.8282925400000001
3302.4959999999996,0.8277853399999999
3307.4959999999996,0.8272799999999999
3312.4959999999996,0.82679206
3317.4959999999996,0.82629944
3322.495,0.82574776
3327.4959999999996,0.8252215600000001
3332.495,0.8249231
3337.4959999999996,0.8245371999999999
3342.4959999999996,0.82326066
3347.4959999999996,0.8210938
3352.4959999999996,0.81884086
3357.4959999999996,0.81681748
3362.4959999999996,0.81482148
3367.4959999999996,0.8127684000000001
3372.4959999999996,0.81071274
3377.4959999999996,0.80867676
3382.4959999999996,0.8066464999999999
3387.4959999999996,0.804616
3392.4959999999996,0.8025894
3397.4959999999996,0.8005680799999999
3402.4959999999996,0.79854972
3407.4959999999996,0.79652412
3412.4959999999996,0.79447594
3417.495,0.7924449200000001
3422.4959999999996,0.7905169999999999
3427.4959999999996,0.7885548
3432.4959999999996,0.7862320799999999
3437.4959999999996,0.78405914
3442.4959999999996,0.7833348000000001
3447.4959999999996,0.7840586
3452.4959999999996,0.78493126
3457.4959999999996,0.78544274
3462.4959999999996,0.78591988
3467.495,0.78649956
3472.4959999999996,0.78709434
3477.4959999999996,0.78766754
3482.4959999999996,0.7882429599999999
3487.4959999999996,0.78882988
3492.4959999999996,0.7894208
3497.4959999999996,0.79001464
3502.4959999999996,0.7906174
3507.4959999999996,0.79122826
3512.4959999999996,0.7918406
3517.4959999999996,0.7924576600000001
3522.495,0.7930921200000001
3527.4959999999996,0.7937258
3532.4959999999996,0.7943138000000001
3537.4959999999996,0.7949256
3542.4959999999996,0.7957384399999999
3547.4959999999996,0.7967519399999999
3552.4959999999996,0.7977891600000001
3557.4959999999996,0.79878028
3562.495,0.7997702
3567.495,0.80077736
3572.4959999999996,0.80178924
3577.4959999999996,0.8028012800000001
3582.4959999999996,0.8038183999999999
3587.4959999999996,0.80483956
3592.4959999999996,0.8058577
3597.4959999999996,0.8068817199999999
3602.4959999999996,0.8079356400000001
3607.495,0.8090205999999999
3612.495,0.81011512
3617.4959999999996,0.8112050000000001
3622.4959999999996,0.8122860799999999
3627.4959999999996,0.81337708
3632.4959999999996,0.8145152
3637.4959999999996,0.81563912
3642.4959999999996,0.81659454
3647.4959999999996,0.8173815999999999
3652.4959999999996,0.8181549
3657.495,0.81897492
3662.4959999999996,0.8198026999999999
3667.495,0.8206220999999999
3672.4959999999996,0.8214444000000001
3677.4959999999996,0.8222726
3682.4959999999996,0.82310028
3687.4959999999996,0.82393196
3692.4959999999996,0.8247813399999999
3697.4959999999996,0.8256282
3702.4959999999996,0.8264200600000001
3707.495,0.82716752
3712.495,0.8279411999999999
3717.4959999999996,0.8287191
3722.4959999999996,0.82939544
3727.4959999999996,0.83011268
3732.4959999999996,0.8312265999999999
3737.4959999999996,0.83218796
3742.4959999999996,0.8315947
3747.4959999999996,0.8294464
3752.495,0.8271448000000001
3757.495,0.8252398000000001
3762.495,0.8233792
3767.495,0.82141532
3772.495,0.8194426800000001
3777.495,0.81750054
3782.4959999999996,0.8155637400000001
3787.4959999999996,0.8136213999999999
3792.4959999999996,0.81167946
3797.4959999999996,0.80974236
3802.495,0.8078106600000001
3807.495,0.8058831
3812.495,0.80395584
3817.4959999999996,0.80203048
3822.4959999999996,0.8001134000000001
3827.4959999999996,0.7981956
3832.4959999999996,0.79625488
3837.4959999999996,0.7943256
3842.495,0.7924954
3847.495,0.79076408
3852.495,0.7890438799999999
3857.495,0.7873005000000001
3862.495,0.78555588
3867.495,0.7838195
3872.4959999999996,0.7820852600000001
3877.4959999999996,0.7803505
3882.4959999999996,0.778616
3887.4959999999996,0.7768836
3892.4959999999996,0.775155
3897.495,0.7734264000000001
3902.495,0.7716892
3907.495,0.7699418
3912.495,0.7681906
3917.495,0.76644486
3922.495,0.7647145999999999
3927.4959999999996,0.762979
3932.4959999999996,0.7611914
3937.4959999999996,0.7594259999999999
3942.495,0.75787
3947.495,0.756523
3952.495,0.75519776
3957.495,0.7538205000000001
3962.495,0.7524387400000001
3967.495,0.75107192
3972.4959999999996,0.7497069599999999
3977.4959999999996,0.748339
3982.4959999999996,0.74697228
3987.495,0.7456070799999999
3992.495,0.7442385999999999
3997.495,0.7428720799999999
4002.495,0.7415210799999999
4007.495,0.74018136
4012.495,0.738831
4017.4959999999996,0.73748292
4022.4959999999996,0.7361802000000001
4027.4959999999996,0.7348606
4032.4959999999996,0.73337234
4037.4959999999996,0.7319508
4042.495,0.7311978
4047.495,0.73111306
4052.495,0.731096
4057.495,0.7309102
4062.4959999999996,0.73070686
4067.4959999999996,0.73054908
4072.4959999999996,0.7303966599999999
4077.4959999999996,0.7302324
4082.495,0.7300658400000001
4087.495,0.7299033399999999
4092.495,0.72974586
4097.495,0.7295860000000001
4102.495,0.7294091999999999
4107.495,0.7292208800000001
4112.495,0.72904572
4117.495,0.72886826
4122.495,0.7286377
4127.496,0.7284276599999999
4132.496,0.7284176600000001
4137.495,0.7283288
4142.495,0.72744912
4147.495,0.72577866
4152.495,0.7240287
4157.496,0.7224786000000001
4162.496,0.72094932
4167.496,0.7193660799999999
4172.496,0.7177774000000001
4177.495,0.7162026999999999
4182.495,0.71462692
4187.495,0.7130475600000001
4192.495,0.7114748399999999
4197.495,0.7098998000000001
4202.496,0.70829392
4207.496,0.7066514
4212.496,0.7049906999999999
4217.496,0.70334412
4222.496,0.7017524
4227.496,0.7001364800000001
4232.495,0.6983183199999999
4237.495,0.6965800400000001
4242.495,0.6956384
4247.495,0.69549332
4252.495,0.6954276
4257.495,0.6951596800000001
4262.496,0.6948698
4267.496,0.6946332599999999
4272.495,0.6944018
4277.495,0.6941553399999999
4282.495,0.69390792
4287.495,0.69366326
4292.495,0.6934138
4297.495,0.69316452
4302.495,0.6929320600000001
4307.495,0.6927261999999998
4312.496,0.6925469200000001
4317.495,0.6923507
4322.495,0.6920598000000001
4327.495,0.69180648
4332.495,0.6919001
4337.495,0.6918548
4342.495,0.69043564
4347.495,0.6876428
4352.495,0.6847114599999999
4357.495,0.6821240999999999
4362.495,0.6795658
4367.495,0.6769072800000001
4372.495,0.6742379
4377.495,0.67159356
4382.495,0.6689495
4387.495,0.6662978000000002
4392.495,0.6636502
4397.495,0.6610009000000001
4402.496,0.658327
4407.495,0.65562768
4412.495,0.65292466
4417.495,0.6502274
4422.495,0.6475322800000001
4427.495,0.6448339
4432.495,0.6421276800000001
4437.495,0.63942418
4442.495,0.63674798
4447.495,0.63409896
4452.495,0.6314523599999999
4457.495,0.6287984
4462.496,0.6261431999999999
4467.495,0.6234896400000001
4472.495,0.62083572
4477.495,0.61818096
4482.495,0.61552586
4487.495,0.61287064
4492.495,0.61021488
4497.495,0.607559
4502.495,0.60490368
4507.495,0.6022400600000001
4512.495,0.59955192
4517.495,0.59687478
4522.495,0.5942862800000001
4527.495,0.5916621400000001
4532.495,0.5887070400000001
4537.495,0.5858831400000001
4542.495,0.58436692
4547.495,0.58415806
4552.495,0.58407974
4557.495,0.5836697399999999
4562.495,0.5832241
4567.495,0.5828667399999999
4572.495,0.58251842
4577.495,0.58214592
4582.495,0.5817702
4587.495,0.58140046
4592.495,0.5810315799999999
4597.495,0.58066052
4602.495,0.58028682
4607.495,0.57992566
4612.495,0.57960372
4617.495,0.57926372
4622.495,0.5787786800000001
4627.495,0.5783511
4632.495,0.5784631
4637.495,0.57836098
4642.495,0.5761266800000001
4647.495,0.57176064
4652.495,0.5671814000000001
4657.495,0.56314308
4662.495,0.5591626000000001
4667.495,0.5550381999999999
4672.495,0.5508988000000001
4677.495,0.54679908
4682.495,0.5427051199999999
4687.495,0.53860116
4692.495,0.53449318
4697.495,0.53039024
4702.495,0.5263026
4707.495,0.52221612
4712.495,0.51809586
4717.495,0.5139886
4722.495,0.5100126199999999
4727.495,0.50598626
4732.495,0.50147404
4737.495,0.49715507999999997
4742.495,0.49475879999999994
4747.495,0.49428503999999995
4752.495,0.49400385999999996
4757.495,0.493236
4762.495,0.49241658
4767.495,0.49172776
4772.495,0.49105298
4777.495,0.49034328000000005
4782.495,0.48962936
4787.495,0.48892514
4792.495,0.48822448
4797.495,0.48752044
4802.495,0.48680640000000003
4807.495,0.48608264
4812.495,0.48535592
4817.495,0.48463259999999997
4822.495,0.48391758
4827.495,0.48319924000000003
4832.495,0.48245269999999996
4837.495,0.48171756000000004
4842.495,0.48109452
4847.495,0.48058346
4852.495,0.48008404
4857.495,0.47955640000000005
4862.495,0.47902540000000005
4867.495,0.47850173999999995
4872.495,0.4779795
4877.495,0.47745540000000003
4882.495,0.47692948
4887.495,0.47640506000000005
4892.495,0.47588794
4897.495,0.4753683
4902.495,0.47482186
4907.495,0.47425434000000005
4912.495,0.47370064
4917.495,0.47314681999999997
4922.495,0.47253544
4927.495,0.47194638
4932.495,0.47157691999999996
4937.495,0.47112148
4942.495,0.46979992
4947.495,0.46761220000000003
4952.495,0.46533879999999994
4957.495,0.46328614
4962.495,0.461258
4967.495,0.45917223999999995
4972.495,0.45708109999999996
4977.495,0.45500728
4982.495,0.45293785999999997
4987.495,0.45086484000000004
4992.495,0.44878688000000005
4997.495,0.4467136
5002.495,0.4446637
5007.495,0.4426352
5012.495,0.44060588
5017.495,0.4385738
5022.495,0.43655644000000005
5027.495,0.43453568
5032.495,0.43246208
5037.495,0.43041041999999996
5042.495,0.42857308000000005
5047.495,0.42694984
5052.495,0.42534890000000003
5057.495,0.42369476
5062.495,0.4220358
5067.495,0.4203922199999999
5072.495,0.41875122
5077.495,0.41710724
5082.495,0.41546318
5087.495,0.41382129999999995
5092.495,0.41218235999999997
5097.495,0.41054314
5102.495,0.40889724
5107.495,0.40724072
5112.495,0.40557303999999994
5117.495,0.40391358000000005
5122.495,0.40229702
5127.495,0.4006644
5132.495,0.39887786
5137.495,0.39715396000000003
5142.495,0.39604248
5147.495,0.39554340000000004
5152.495,0.39510636
5157.495,0.39451521999999994
5162.495,0.3939083400000001
5167.495,0.39334373999999994
5172.495,0.39278472000000003
5177.495,0.3922153
5182.495,0.3916442
5187.495,0.3910775
5192.495,0.3905167
5197.495,0.38995408000000004
5202.495,0.3893736
5207.495,0.38878211999999995
5212.495,0.38820762000000003
5217.495,0.3876307
5222.495,0.38699008
5227.495,0.38637524
5232.495,0.38600396000000003
5237.495,0.38553788
5242.495,0.38411491999999997
5247.495,0.38173516
5252.495,0.37926097999999997
5257.495,0.37703117999999997
5262.495,0.37482876
5267.495,0.37256293999999995
5272.495,0.37029148
5277.495,0.36803916000000003
5282.495,0.36579147999999995
5287.495,0.36354008
5292.495,0.36128593999999997
5297.495,0.3590362
5302.495,0.35680365999999997
5307.495,0.35458396000000003
5312.495,0.3523573
5317.495,0.35013244
5322.495,0.34794455999999996
5327.495,0.34574461999999995
5332.495,0.3434113
5337.495,0.34113240000000006
5342.495,0.33938668
5347.495,0.3381742
5352.495,0.3370162
5357.495,0.33572456
5362.495,0.33441982000000003
5367.495,0.33315232
5372.495,0.33188984000000005
5377.495,0.33061880000000005
5382.495,0.32934779999999997
5387.495,0.32808056
5392.495,0.32681534
5397.495,0.3255503
5402.495,0.32428402
5407.495,0.32301564
5412.495,0.3217452
5417.495,0.32047776
5422.495,0.31922245
5427.495,0.31796382
5432.495,0.31666637999999997
5437.495,0.31538606
5442.495,0.31426538
5447.495,0.31330428
5452.495,0.3123603
