wavelength,transmission
4577.495,0.0
4582.495,1.702601e-05
4587.495,5.645982e-05
4592.495,7.667578000000001e-05
4597.495,7.3526762e-05
4602.495,6.984055600000001e-05
4607.495,7.144334799999999e-05
4612.495,6.680816e-05
4617.495,6.328021999999999e-05
4622.495,8.6342292e-05
4627.495,0.00012711692
4632.495,0.00014348678
4637.495,0.000137246586
4642.495,0.000153608928
4647.495,0.00019318158000000002
4652.495,0.00021181823999999997
4657.495,0.0002053607
4662.495,0.00021067160000000002
4667.495,0.0002437162
4672.495,0.00029766667999999997
4677.495,0.0003631853
4682.495,0.0004296475
4687.495,0.0004917629
4692.495,0.0005498331
4697.495,0.000608805
4702.495,0.00067802168
4707.495,0.0007666813599999999
4712.495,0.0008824696
4717.495,0.0010062384000000001
4722.495,0.0010937824800000002
4727.495,0.0011415064
4732.495,0.0011863764
4737.495,0.0012393699999999998
4742.495,0.0012840631999999999
4747.495,0.0013120921999999998
4752.495,0.0013243672
4757.495,0.001322286
4762.495,0.0013071515999999999
4767.495,0.0012762818
4772.495,0.0012236918599999999
4777.495,0.00115910724
4782.495,0.0011074012
4787.495,0.0010772302
4792.495,0.00106072314
4797.495,0.0010580165
4802.495,0.00107720248
4807.495,0.0011086582400000001
4812.495,0.0011256078
4817.495,0.001121905
4822.495,0.0011126610599999998
4827.495,0.00110998548
4832.495,0.0011217965199999999
4837.495,0.0011498929599999999
4842.495,0.00119042576
4847.495,0.00124619744
4852.495,0.00132596508
4857.495,0.0014164088
4862.495,0.0014836364
4867.495,0.001533935
4872.495,0.0016131017999999999
4877.495,0.0017309308000000002
4882.495,0.0018605695999999998
4887.495,0.0019999056
4892.495,0.0021720722000000002
4897.495,0.0023752518
4902.495,0.0025830894
4907.495,0.0028044370000000003
4912.495,0.0030828326
4917.495,0.0034272934
4922.495,0.0038118144
4927.495,0.0042339662
4932.495,0.0047163484
4937.495,0.0052799832
4942.495,0.005942684
4947.495,0.006711124
4952.495,0.0075819576
4957.495,0.0085810286
4962.495,0.009763009999999999
4967.495,0.011165303999999997
4972.495,0.01280764
4977.495,0.014729406
4982.495,0.016990964
4987.495,0.0196651388
4992.495,0.022836529999999997
4997.495,0.026594563999999998
5002.495,0.031035858
5007.495,0.036296072
5012.495,0.042548855999999996
5017.495,0.049925055999999995
5022.495,0.058511414000000005
5027.495,0.06840186
5032.495,0.07969846
5037.495,0.09248072
5042.495,0.106796952
5047.495,0.1225348
5052.495,0.13941532999999998
5057.495,0.157140312
5062.495,0.17539535999999997
5067.495,0.1937971
5072.495,0.21189650000000002
5077.495,0.2293029
5082.495,0.24569276
5087.495,0.26087467999999997
5092.495,0.27478835999999995
5097.495,0.28743845
5102.495,0.29888442
5107.495,0.30922116
5112.495,0.31857838
5117.495,0.3271474
5122.495,0.3351746
5127.495,0.34278959999999997
5132.495,0.35001458
5137.495,0.3571452
5142.495,0.36473546
5147.495,0.37283574
5152.495,0.38099437999999997
5157.495,0.38900149999999994
5162.495,0.39690696000000003
5167.495,0.40467624
5172.495,0.41217766
5177.495,0.41924279999999997
5182.495,0.42567592
5187.495,0.43138940000000003
5192.495,0.43640088
5197.495,0.44060074
5202.495,0.44375640000000005
5207.495,0.44580562
5212.495,0.44685924
5217.495,0.44698136
5222.495,0.4461887
5227.495,0.44465106
5232.495,0.4426732
5237.495,0.4400788
5242.495,0.43624240000000003
5247.495,0.43137659999999994
5252.495,0.42652588
5257.495,0.42213254
5262.495,0.41800956
5267.495,0.41416896000000003
5272.495,0.41084294
5277.495,0.40810497999999995
5282.495,0.4058628
5287.495,0.40406654
5292.495,0.40271442
5297.495,0.4017456
5302.495,0.40103953999999997
5307.495,0.40050354
5312.495,0.40007576
5317.495,0.39970348
5322.495,0.3993392
5327.495,0.39886990000000005
5332.495,0.39813282
5337.495,0.39733174
5342.495,0.39701279999999994
5347.495,0.39712246
5352.495,0.39701058000000006
5357.495,0.39643720000000005
5362.495,0.39559600000000006
5367.495,0.39461048
5372.495,0.39351456
5377.495,0.39232665999999994
5382.495,0.39105294
5387.495,0.38968724
5392.495,0.38821376
5397.495,0.38665988
5402.495,0.38509340000000003
5407.495,0.38351524
5412.495,0.38186191999999997
5417.495,0.3801651
5422.495,0.37854832
5427.495,0.37699184
5432.495,0.3753378
5437.495,0.37361942
5442.495,0.37205923999999996
5447.495,0.37069016
5452.495,0.36935112
5457.495,0.3679788
5462.495,0.36661506000000005
5467.495,0.36527524
5472.495,0.36394474000000004
5477.495,0.36262416
5482.495,0.36133004
5487.495,0.3600711
5492.495,0.35884742
5497.495,0.35766308
5502.495,0.35652484
5507.495,0.35539402000000003
5512.495,0.35418988
5517.495,0.35291088000000004
5522.495,0.35163384000000003
5527.495,0.35038768
5532.495,0.34914997999999997
5537.495,0.34790328000000004
5542.495,0.34663740000000004
5547.495,0.34533874
5552.495,0.34399
5557.495,0.342556
5562.495,0.34098908
5567.495,0.33935376
5572.495,0.33782024
5577.495,0.33640556
5582.495,0.33497436
5587.495,0.33349854
5592.495,0.33206240000000004
5597.495,0.330706
5602.495,0.3294205
5607.495,0.32821005999999997
5612.495,0.32709156
5617.495,0.32604331999999997
5622.495,0.32500735999999997
5627.495,0.32398972
5632.495,0.32305564000000003
5637.494000000001,0.32212379999999996
5642.495,0.32097306000000003
5647.495,0.31958722
5652.495,0.31815590000000005
5657.495,0.31674668
5662.494000000001,0.31529788
5667.495,0.31378861999999996
5672.495,0.31224071999999997
5677.494000000001,0.31060226
5682.495,0.308748
5687.495,0.30661772
5692.495,0.30422008
5697.495,0.30158158
5702.495,0.29874156
5707.495,0.29569882
5712.495,0.29241335999999996
5717.495,0.28890141999999996
5722.495,0.28523336
5727.495,0.28136138
5732.494000000001,0.2771345
5737.495,0.27279746000000005
5742.495,0.26897156
5747.495,0.2657425
5752.495,0.26265466
5757.495,0.25950068
5762.495,0.25634458
5767.495,0.25323898
5772.494000000001,0.25021082
5777.495,0.24719904
5782.495,0.24405767999999997
5787.495,0.24067504
5792.495,0.23697557999999996
5797.495,0.23283714
5802.495,0.22809023999999997
5807.494000000001,0.22257978
5812.494000000001,0.21616844000000002
5817.494000000001,0.20879006
5822.494000000001,0.20044436
5827.495,0.19107032000000002
5832.495,0.180573
5837.495,0.16954571999999998
5842.495,0.15920954
5847.495,0.14936298
5852.495,0.138421068
5857.494000000001,0.126326294
5862.494000000001,0.114569626
5867.495,0.10383006
5872.495,0.093908148
5877.495,0.08471045399999999
5882.495,0.076285328
5887.495,0.068627386
5892.495,0.06167120400000001
5897.495,0.055347776
5902.495,0.049588952000000006
5907.494000000001,0.044357968000000005
5912.494000000001,0.039650095999999996
5917.495,0.035417314
5922.495,0.031568967999999996
5927.495,0.028050142000000004
5932.494000000001,0.024843708
5937.495,0.021937256000000002
5942.495,0.0193210054
5947.495,0.016974888
5952.495,0.014869093999999998
5957.495,0.012985357
5962.495,0.011317896000000001
5967.495,0.009851474
5972.495,0.0085614764
5977.495,0.007432904000000001
5982.495,0.0064603405999999995
5987.495,0.0056280945999999995
5992.495,0.0049100978
5997.495,0.0042876276
6002.494000000001,0.0037497032
6007.495,0.0032882306
6012.495,0.0028971976
6017.495,0.0025642475999999997
6022.495,0.0022711048
6027.494000000001,0.0020114298
6032.494000000001,0.0017907731199999998
6037.494000000001,0.0016077253999999999
6042.494000000001,0.0014534304
6047.494000000001,0.0013197022
6052.494000000001,0.0011995389400000001
6057.494000000001,0.00109003864
6062.494000000001,0.00099239528
6067.495,0.0009076669
6072.495,0.00083648228
6077.495,0.00077659666
6082.495,0.0007230644599999999
6087.494000000001,0.00067447066
6092.494000000001,0.0006329080000000001
6097.494000000001,0.00059716564
6102.494000000001,0.0005626846799999999
6107.494000000001,0.000526962
6112.494000000001,0.0004898240799999999
6117.494000000001,0.00045397244000000005
6122.495,0.00042464678
6127.495,0.00040168752
