wavelength,transmission
5495.68704,6.341599999999999e-08
5511.88704,9.5704e-08
5528.087039999999,7.2928e-08
5544.28704,2.13864e-07
5560.48704,1.081616e-06
5576.68704,4.674776000000001e-06
5592.88704,1.4323864e-05
5609.087039999999,3.133408e-05
5625.28704,5.4894512e-05
5641.48704,8.348816000000001e-05
5657.68704,0.00011491879999999999
5673.88704,0.00014552256000000002
5690.087039999999,0.00017026888
5706.28704,0.00018592424
5722.48704,0.00019143943999999998
5738.68704,0.00019331823999999998
5754.88704,0.00020502448
5771.087039999999,0.0002285584
5787.28704,0.00025422103999999995
5803.48704,0.00027389727999999996
5819.68704,0.00028188664
5835.88704,0.00028016696
5852.087039999999,0.00027807624
5868.28704,0.00028009024
5884.48704,0.00028550512000000003
5900.68704,0.00029368736
5916.88704,0.00030419816
5933.087039999999,0.000314286
5949.2838,0.00031905864
5965.48704,0.00031770640000000004
5981.68704,0.00031353159999999996
5997.88704,0.00030829656
6014.087039999999,0.000302088
6030.28704,0.00029597632
6046.48704,0.00029205143999999996
6062.68704,0.00029154392
6078.88704,0.00029475464
6095.0838,0.00030138783999999997
6111.28704,0.00031062824
6127.48704,0.00032245592000000004
6143.68704,0.00033743856
6159.88704,0.00035080448
6176.087039999999,0.0003527604
6192.28704,0.00034140904
6208.48704,0.00032303279999999995
6224.68704,0.00030541312
6240.88704,0.00029723408
6257.087039999999,0.00030163152
6273.28704,0.00031601312
6289.48704,0.0003344684
6305.68704,0.00034829424
6321.88704,0.00035514312
6338.087039999999,0.0003590992
6354.28704,0.00036320183999999996
6370.48704,0.00036906136
6386.68704,0.00037587944
6402.8838,0.00038059144
6419.087039999999,0.00038197407999999994
6435.28704,0.00038076767999999995
6451.48704,0.00037828823999999997
6467.68704,0.00037629992000000003
6483.88704,0.00037560207999999995
6500.087039999999,0.00037602576
6516.28704,0.00037777039999999996
6532.48704,0.00038135919999999997
6548.68704,0.00038532080000000003
6564.8838,0.00038622407999999996
6581.087039999999,0.00038172328
6597.2838,0.00037079352000000005
6613.48704,0.00035582056
6629.68704,0.00034245592000000004
6645.88704,0.0003343292
6662.087039999999,0.00033275592
6678.28704,0.0003356076
6694.48704,0.00033751208
6710.68704,0.00033540983999999995
6726.8870400000005,0.00032880159999999997
6743.08704,0.00031963136000000004
6759.28704,0.0003121284
6775.487040000001,0.00030936
6791.687040000001,0.00031302567999999997
6807.8870400000005,0.00032235696
6824.08704,0.0003341584
6840.28704,0.0003447964
6856.487040000001,0.00035040952
6872.6838,0.0003495376
6888.8870400000005,0.00034318304
6905.08704,0.00033357536
6921.28704,0.00032402792
6937.487040000001,0.00031701832
6953.687040000001,0.00031408016
6969.8870400000005,0.00031533688
6986.08704,0.00031951960000000003
7002.28704,0.00032482184
7018.487040000001,0.000328996
7034.6838,0.00033060144
7050.8870400000005,0.00032907792000000006
7067.08704,0.00032510392
7083.28704,0.00032054536
7099.487040000001,0.0003169496
7115.687040000001,0.00031546016000000006
7131.8870400000005,0.00031643848
7148.08704,0.00031946776000000004
7164.28704,0.00032381408
7180.487040000001,0.00032846592
7196.687040000001,0.00033250863999999996
7212.8838,0.00033516688
7229.08704,0.00033632072
7245.28704,0.00033650647999999996
7261.487040000001,0.00033639608
7277.687040000001,0.00033676024
7293.8870400000005,0.00033817448
7310.08704,0.00034100360000000003
7326.28704,0.00034537416000000003
7342.4838,0.0003511572
7358.6838,0.00035765312
7374.8870400000005,0.00036361423999999997
7391.08704,0.0003681116
7407.28704,0.00037057064
7423.487040000001,0.0003706972
7439.687040000001,0.00036850144
7455.8870400000005,0.00036490648
7472.08704,0.00036171768
7488.2838,0.00036035280000000004
7504.4838,0.00036176392000000004
7520.687040000001,0.00036594696000000004
7536.8870400000005,0.00037195056000000005
7553.08704,0.00037854224
7569.28704,0.0003842616
7585.487040000001,0.00038792512
7601.687040000001,0.00038868992000000007
7617.8870400000005,0.00038695696
7634.08704,0.00038434952
7650.2838,0.00038234463999999995
7666.487040000001,0.00038217848
7682.6838,0.00038413896000000003
7698.8870400000005,0.00038756328
7715.08704,0.00039150296
7731.28704,0.00039478
7747.487040000001,0.00039655392
7763.687040000001,0.00039635607999999995
7779.8870400000005,0.00039428624
7796.08704,0.00039099512000000006
7812.2838,0.00038711248
7828.4838,0.00038320552
7844.687040000001,0.000379404
7860.8870400000005,0.00037542816
7877.08704,0.00037157912000000004
7893.28704,0.00036873544
7909.487040000001,0.0003672824
7925.687040000001,0.00036709696
7941.8870400000005,0.00036827792000000004
7958.0838,0.0003711088
7974.2838,0.00037451807999999996
7990.4838,0.00037610128
8006.6838,0.00037418672
8022.8838,0.00036795576000000005
8039.0838,0.0003580084
8055.28704,0.00034632816000000003
8071.487040000001,0.00033492976000000003
8087.687040000001,0.00032578824
8103.8870400000005,0.00032062911999999996
8120.0838,0.00032085416
8136.2838,0.00032615128
8152.4838,0.00033449
8168.687040000001,0.00034344736
8184.8870400000005,0.00035027304
8201.08704,0.00035198760000000004
8217.287040000001,0.00034546872
8233.48704,0.0003292488
8249.6838,0.00030358096000000003
8265.8838,0.00027010192000000003
8282.0838,0.00023175607999999996
8298.2838,0.0001917168
8314.4838,0.00015328288
8330.6838,0.00011889624
8346.887040000001,9.009135999999999e-05
8363.08704,6.7362888e-05
8379.287040000001,5.0188904e-05
8395.48704,3.7691064000000004e-05
8411.68704,2.8688256e-05
8427.8838,2.221152e-05
8444.0838,1.7528664000000002e-05
8460.2838,1.4083728e-05
8476.4838,1.1492544000000001e-05
8492.6838,9.487055999999999e-06
8508.8838,7.909416000000001e-06
8525.08704,6.638135999999999e-06
8541.287040000001,5.58448e-06
8557.48704,4.687576e-06
8573.6838,3.913648000000001e-06
8589.8838,3.2435519999999997e-06
8606.0838,2.671816e-06
8622.2838,2.190776e-06
8638.4838,1.790072e-06
8654.6838,1.458856e-06
8670.887040000001,1.1861520000000001e-06
8687.08704,9.65456e-07
8703.287040000001,7.9456e-07
8719.4838,6.6728e-07
8735.6838,5.732e-07
8751.8838,5.01224e-07
8768.0838,4.39984e-07
8784.2838,3.84816e-07
8800.4838,3.3772800000000004e-07
8816.68704,3.0092800000000003e-07
8832.887040000001,2.76208e-07
8849.08704,2.5916e-07
8865.287040000001,2.3972800000000004e-07
8881.48704,2.19664e-07
8897.6838,2.12072e-07
8913.8838,2.1444e-07
8930.0838,2.08696e-07
8946.2838,1.8972e-07
8962.48704,1.66016e-07
8978.68704,1.46976e-07
8994.887040000001,1.41648e-07
9011.08704,1.44272e-07
9027.2838,1.35136e-07
9043.4838,1.1460000000000001e-07
9059.6838,1.02952e-07
9075.8838,1.04576e-07
9092.0838,1.0735200000000001e-07
9108.2838,1.0650399999999999e-07
9124.4838,1.0528e-07
9140.6838,1.0501600000000002e-07
9156.8838,1.04856e-07
9173.08704,1.0443199999999999e-07
9189.287040000001,1.0400799999999999e-07
9205.4838,1.0364799999999999e-07
9221.6838,1.0318399999999999e-07
9237.8838,1.02592e-07
9254.0838,1.0198400000000001e-07
9270.287040000001,1.0140800000000002e-07
9286.48704,1.0084000000000001e-07
9302.68704,1.00272e-07
9318.887040000001,9.969600000000001e-08
9335.0838,9.9128e-08
9351.2838,9.8552e-08
9367.4838,9.7992e-08
9383.6838,9.7424e-08
9399.8838,9.685599999999999e-08
9416.08704,9.6296e-08
9432.287040000001,9.572000000000001e-08
9448.48704,9.5152e-08
9464.68704,9.458400000000001e-08
9480.887040000001,9.4024e-08
9497.08704,9.3464e-08
9513.2838,9.288e-08
9529.4838,9.231200000000001e-08
9545.6838,9.184000000000001e-08
9561.8838,9.148e-08
9578.0838,9.1136e-08
9594.2838,9.076000000000001e-08
9610.48704,9.0376e-08
9626.68704,9.000800000000001e-08
9642.8838,8.963999999999999e-08
9659.0838,8.9264e-08
9675.2838,8.8896e-08
9691.4838,8.852000000000001e-08
9707.6838,8.8152e-08
9723.8838,8.7784e-08
9740.0838,8.740800000000001e-08
9756.2838,8.7048e-08
9772.48704,8.6688e-08
9788.6838,8.632e-08
9804.8838,8.5944e-08
9821.0838,8.5576e-08
9837.2838,8.5248e-08
9853.4838,8.490399999999999e-08
9869.6838,8.439199999999999e-08
9885.8838,8.3712e-08
9902.0838,8.3024e-08
9918.2838,8.237600000000001e-08
9934.4838,8.173600000000001e-08
9950.6838,8.108799999999999e-08
9966.8838,8.044e-08
9983.0838,7.9792e-08
9999.2838,7.9152e-08
10015.4838,7.851200000000001e-08
10031.6838,7.787999999999999e-08
10047.8838,7.7248e-08
10064.08704,7.6616e-08
10080.2838,7.5984e-08
10096.4838,7.5352e-08
10112.6838,7.472000000000001e-08
10128.8838,7.4096e-08
10145.0838,7.347200000000001e-08
10161.2838,7.285599999999999e-08
10177.4838,7.223200000000001e-08
10193.6838,7.1624e-08
10209.8838,7.1016e-08
10226.0838,7.0416e-08
10242.2838,6.9808e-08
10258.48704,6.920800000000001e-08
10274.6838,6.8616e-08
10290.8838,6.801599999999999e-08
10307.0838,6.7424e-08
10323.2838,6.684e-08
10339.4838,6.6248e-08
10355.6838,6.5664e-08
10371.8838,6.508800000000001e-08
10388.0838,6.450399999999999e-08
10404.2838,6.3928e-08
10420.4838,6.3352e-08
10436.6838,6.277599999999999e-08
10452.8838,6.221599999999999e-08
10469.0838,6.165599999999999e-08
10485.2838,6.1064e-08
10501.4838,6.048e-08
10517.6838,6.004e-08
10533.8838,5.9736e-08
10550.0838,5.9448000000000004e-08
10566.2838,5.912e-08
10582.4838,5.8784000000000005e-08
10598.6838,5.8463999999999993e-08
10614.8838,5.816799999999999e-08
10631.0838,5.785599999999999e-08
10647.2838,5.7455999999999995e-08
10663.4838,5.7088e-08
10679.6838,5.7088e-08
10695.8838,5.6936e-08
10712.0838,5.5448e-08
10728.2838,5.4712e-08
10744.4838,6.005599999999999e-08
10760.6838,7.412e-08
10776.8838,9.664799999999999e-08
10793.0838,1.25248e-07
10809.2838,1.5555999999999997e-07
10825.4838,1.8388800000000004e-07
10841.6838,2.0724e-07
10857.8838,2.20568e-07
10874.0838,2.17192e-07
10890.2838,2.00272e-07
10906.4838,1.82536e-07
10922.6838,1.68328e-07
10938.8838,1.53336e-07
10955.0838,1.38152e-07
10971.2838,1.28488e-07
10987.4838,1.27464e-07
11003.6838,1.35224e-07
11019.8838,1.4801600000000002e-07
11036.0838,1.59504e-07
11052.2838,1.90136e-07
11068.4838,2.83528e-07
11084.6838,3.97768e-07
11100.8838,4.37872e-07
11117.0838,1.080656e-06
11133.2838,3.7599839999999996e-06
11149.4838,9.517672e-06
11165.6838,1.8840352e-05
11181.8838,2.9219552e-05
11198.0838,3.5308216e-05
11214.2838,3.4810112e-05
11230.4838,2.8670224e-05
11246.6838,1.9448407999999997e-05
11262.8838,1.1087344e-05
11279.0838,5.449408e-06
11295.2838,2.241344e-06
11311.4838,8.1976e-07
11327.6838,2.99128e-07
11343.8838,1.226e-07
11360.0838,7.708e-08
11376.2838,5.496799999999999e-08
11392.4838,3.9760000000000007e-08
11408.6838,2.7344e-08
11424.8838,2.1824e-08
11441.0838,2.2536000000000004e-08
11457.2838,2.3880000000000003e-08
11473.4838,2.3647999999999998e-08
11489.6838,2.3216e-08
11505.8838,2.3224e-08
11522.0838,2.3431999999999998e-08
11538.2838,2.3463999999999998e-08
11554.4838,2.2912e-08
11570.6838,2.2624e-08
11586.8838,2.4447999999999998e-08
11603.0838,2.5424e-08
11619.2838,1.8168e-08
